threshold,miss_rate,fpr
0.000,0.000000,1.000000
0.001,0.000000,1.000000
0.002,0.000000,1.000000
0.003,0.000000,1.000000
0.004,0.000000,1.000000
0.005,0.000000,1.000000
0.006,0.000000,1.000000
0.007,0.000000,1.000000
0.008,0.000000,1.000000
0.009,0.000000,1.000000
0.010,0.000000,1.000000
0.011,0.000000,1.000000
0.012,0.000000,1.000000
0.013,0.000000,1.000000
0.014,0.000000,1.000000
0.015,0.000000,1.000000
0.016,0.000000,1.000000
0.017,0.000000,1.000000
0.018,0.000000,1.000000
0.019,0.000000,1.000000
0.020,0.000000,1.000000
0.021,0.000000,1.000000
0.022,0.000000,1.000000
0.023,0.000000,1.000000
0.024,0.000000,1.000000
0.025,0.000000,1.000000
0.026,0.000000,1.000000
0.027,0.000000,1.000000
0.028,0.000000,1.000000
0.029,0.000000,1.000000
0.030,0.000000,1.000000
0.031,0.000000,1.000000
0.032,0.000000,1.000000
0.033,0.000000,1.000000
0.034,0.000000,1.000000
0.035,0.000000,1.000000
0.036,0.000000,1.000000
0.037,0.000000,1.000000
0.038,0.000000,1.000000
0.039,0.000000,1.000000
0.040,0.000000,1.000000
0.041,0.000000,1.000000
0.042,0.000000,1.000000
0.043,0.000000,1.000000
0.044,0.000000,1.000000
0.045,0.000000,1.000000
0.046,0.000000,1.000000
0.047,0.000000,1.000000
0.048,0.000000,1.000000
0.049,0.000000,1.000000
0.050,0.000000,1.000000
0.051,0.000000,1.000000
0.052,0.000000,1.000000
0.053,0.000000,1.000000
0.054,0.000000,1.000000
0.055,0.000000,1.000000
0.056,0.000000,1.000000
0.057,0.000000,1.000000
0.058,0.000000,1.000000
0.059,0.000000,1.000000
0.060,0.000000,1.000000
0.061,0.000000,1.000000
0.062,0.000000,1.000000
0.063,0.000000,1.000000
0.064,0.000000,1.000000
0.065,0.000000,1.000000
0.066,0.000000,1.000000
0.067,0.000000,1.000000
0.068,0.000000,1.000000
0.069,0.000000,1.000000
0.070,0.000000,1.000000
0.071,0.000000,1.000000
0.072,0.000000,1.000000
0.073,0.000000,1.000000
0.074,0.000000,1.000000
0.075,0.000000,1.000000
0.076,0.000000,1.000000
0.077,0.000000,1.000000
0.078,0.000000,0.999920
0.079,0.000000,0.999920
0.080,0.000000,0.999801
0.081,0.000000,0.999443
0.082,0.000000,0.999084
0.083,0.000000,0.998686
0.084,0.000000,0.997492
0.085,0.000000,0.996457
0.086,0.000214,0.995461
0.087,0.000429,0.994147
0.088,0.000429,0.992316
0.089,0.000643,0.990564
0.090,0.001072,0.988534
0.091,0.001072,0.985747
0.092,0.001072,0.982880
0.093,0.001072,0.978222
0.094,0.001072,0.974679
0.095,0.001072,0.970219
0.096,0.001286,0.965044
0.097,0.001501,0.958793
0.098,0.001715,0.952343
0.099,0.001715,0.944938
0.100,0.001930,0.936577
0.101,0.002144,0.927937
0.102,0.002144,0.919497
0.103,0.002144,0.909384
0.104,0.002144,0.900147
0.105,0.002144,0.890791
0.106,0.002144,0.880041
0.107,0.002358,0.869252
0.108,0.002787,0.858940
0.109,0.003002,0.846757
0.110,0.003216,0.836366
0.111,0.003431,0.824581
0.112,0.003859,0.813433
0.113,0.003859,0.800812
0.114,0.003859,0.788351
0.115,0.004074,0.776207
0.116,0.004074,0.763586
0.117,0.004074,0.749492
0.118,0.004288,0.736871
0.119,0.004503,0.724290
0.120,0.004503,0.711868
0.121,0.004503,0.700482
0.122,0.004503,0.690090
0.123,0.004503,0.679978
0.124,0.004503,0.668432
0.125,0.004931,0.658797
0.126,0.004931,0.648525
0.127,0.004931,0.639328
0.128,0.004931,0.629852
0.129,0.005575,0.618545
0.130,0.005789,0.609030
0.131,0.006003,0.597643
0.132,0.006003,0.587451
0.133,0.006003,0.577657
0.134,0.006218,0.568141
0.135,0.006218,0.558626
0.136,0.006432,0.549668
0.137,0.006432,0.540510
0.138,0.006432,0.531751
0.139,0.006432,0.522714
0.140,0.006647,0.515069
0.141,0.006861,0.507266
0.142,0.006861,0.500896
0.143,0.006861,0.495123
0.144,0.006861,0.490226
0.145,0.007075,0.484771
0.146,0.007075,0.479834
0.147,0.007504,0.475415
0.148,0.007719,0.471553
0.149,0.008148,0.467890
0.150,0.008362,0.463471
0.151,0.008362,0.459529
0.152,0.008362,0.455667
0.153,0.008362,0.451766
0.154,0.008362,0.447944
0.155,0.008362,0.444161
0.156,0.008362,0.440658
0.157,0.008362,0.436238
0.158,0.008576,0.432695
0.159,0.008576,0.429470
0.160,0.008576,0.425449
0.161,0.008576,0.421866
0.162,0.008576,0.417805
0.163,0.008791,0.414421
0.164,0.008791,0.410399
0.165,0.009005,0.406577
0.166,0.009005,0.403392
0.167,0.009434,0.400048
0.168,0.009434,0.396982
0.169,0.009863,0.393638
0.170,0.009863,0.390134
0.171,0.010077,0.387188
0.172,0.010077,0.384282
0.173,0.010292,0.380858
0.174,0.010506,0.378190
0.175,0.010720,0.376000
0.176,0.010720,0.373174
0.177,0.010720,0.370307
0.178,0.010720,0.366843
0.179,0.011149,0.363419
0.180,0.011149,0.361269
0.181,0.011578,0.358084
0.182,0.011792,0.355576
0.183,0.012007,0.353227
0.184,0.012436,0.350758
0.185,0.012436,0.348808
0.186,0.012436,0.346180
0.187,0.012436,0.343950
0.188,0.012436,0.341601
0.189,0.012864,0.339412
0.190,0.012864,0.337182
0.191,0.012864,0.334315
0.192,0.012864,0.331807
0.193,0.013293,0.329060
0.194,0.013508,0.326472
0.195,0.013508,0.324083
0.196,0.013508,0.321615
0.197,0.013508,0.318908
0.198,0.013722,0.316479
0.199,0.013722,0.314170
0.200,0.013937,0.311303
0.201,0.013937,0.308795
0.202,0.013937,0.305928
0.203,0.013937,0.303022
0.204,0.013937,0.299717
0.205,0.014580,0.296612
0.206,0.015009,0.293268
0.207,0.015652,0.290122
0.208,0.016081,0.286539
0.209,0.016295,0.283314
0.210,0.016509,0.279333
0.211,0.016509,0.275511
0.212,0.016509,0.271967
0.213,0.016724,0.268225
0.214,0.016724,0.263925
0.215,0.016724,0.259625
0.216,0.016938,0.255524
0.217,0.016938,0.251344
0.218,0.017581,0.247482
0.219,0.017581,0.243023
0.220,0.017796,0.238046
0.221,0.018010,0.232950
0.222,0.018225,0.228331
0.223,0.018439,0.224071
0.224,0.018868,0.218856
0.225,0.018868,0.214277
0.226,0.019297,0.208863
0.227,0.019940,0.203766
0.228,0.020369,0.199865
0.229,0.020583,0.195047
0.230,0.020798,0.190986
0.231,0.021012,0.186806
0.232,0.021870,0.182944
0.233,0.022513,0.178923
0.234,0.022727,0.174822
0.235,0.022942,0.170880
0.236,0.024443,0.167536
0.237,0.024443,0.164510
0.238,0.024657,0.161882
0.239,0.025086,0.158896
0.240,0.025943,0.156229
0.241,0.026801,0.154318
0.242,0.027015,0.152048
0.243,0.027659,0.149620
0.244,0.028087,0.147589
0.245,0.028516,0.146076
0.246,0.029588,0.144285
0.247,0.029588,0.142175
0.248,0.030660,0.140741
0.249,0.031089,0.139547
0.250,0.031518,0.138114
0.251,0.032161,0.136760
0.252,0.032590,0.135725
0.253,0.032804,0.134610
0.254,0.033019,0.133694
0.255,0.033662,0.132420
0.256,0.033877,0.131345
0.257,0.034091,0.130509
0.258,0.034520,0.129355
0.259,0.035377,0.128439
0.260,0.036021,0.127444
0.261,0.036664,0.126767
0.262,0.037307,0.125333
0.263,0.038593,0.124258
0.264,0.039451,0.123621
0.265,0.039666,0.122825
0.266,0.040094,0.121870
0.267,0.040738,0.120994
0.268,0.040738,0.120317
0.269,0.041166,0.119521
0.270,0.042453,0.118565
0.271,0.043096,0.117411
0.272,0.044383,0.116774
0.273,0.044811,0.115937
0.274,0.045455,0.115181
0.275,0.045669,0.114464
0.276,0.046312,0.113987
0.277,0.047384,0.113429
0.278,0.047813,0.112951
0.279,0.049743,0.112314
0.280,0.050600,0.111558
0.281,0.051029,0.111200
0.282,0.051672,0.110523
0.283,0.051672,0.109726
0.284,0.052101,0.109089
0.285,0.052530,0.108612
0.286,0.054245,0.108094
0.287,0.054674,0.107417
0.288,0.055317,0.107099
0.289,0.055961,0.106661
0.290,0.056604,0.106263
0.291,0.057461,0.105904
0.292,0.057676,0.105586
0.293,0.057676,0.105188
0.294,0.058319,0.104790
0.295,0.058748,0.104511
0.296,0.058748,0.104153
0.297,0.059177,0.103794
0.298,0.060034,0.103436
0.299,0.060463,0.103277
0.300,0.060678,0.102998
0.301,0.061321,0.102759
0.302,0.061321,0.102401
0.303,0.062607,0.102003
0.304,0.063036,0.101405
0.305,0.063250,0.101127
0.306,0.064322,0.100450
0.307,0.065609,0.099733
0.308,0.065823,0.099415
0.309,0.066252,0.099056
0.310,0.067110,0.098539
0.311,0.067967,0.098181
0.312,0.068825,0.097822
0.313,0.069254,0.097344
0.314,0.070111,0.096946
0.315,0.071184,0.096668
0.316,0.071612,0.096110
0.317,0.072041,0.095792
0.318,0.072899,0.095354
0.319,0.073328,0.094916
0.320,0.074400,0.094438
0.321,0.075043,0.094080
0.322,0.075901,0.093682
0.323,0.076544,0.093443
0.324,0.076973,0.093084
0.325,0.078259,0.092726
0.326,0.078259,0.092487
0.327,0.078688,0.091970
0.328,0.078688,0.091452
0.329,0.079545,0.091253
0.330,0.080403,0.090656
0.331,0.080832,0.090337
0.332,0.081475,0.089859
0.333,0.082333,0.089541
0.334,0.082762,0.089143
0.335,0.083405,0.089063
0.336,0.083834,0.088745
0.337,0.084906,0.088426
0.338,0.085549,0.087749
0.339,0.086407,0.087510
0.340,0.087050,0.087152
0.341,0.087693,0.087112
0.342,0.088551,0.086794
0.343,0.089408,0.086475
0.344,0.090480,0.086316
0.345,0.091338,0.086077
0.346,0.091981,0.085838
0.347,0.093053,0.085639
0.348,0.093482,0.085440
0.349,0.093911,0.085361
0.350,0.094340,0.085122
0.351,0.095197,0.084644
0.352,0.095412,0.084405
0.353,0.095840,0.083967
0.354,0.096698,0.083728
0.355,0.097127,0.083569
0.356,0.097985,0.083449
0.357,0.098413,0.083290
0.358,0.099271,0.083012
0.359,0.100557,0.082852
0.360,0.100986,0.082574
0.361,0.101630,0.082335
0.362,0.102058,0.082016
0.363,0.103559,0.081698
0.364,0.103988,0.081379
0.365,0.104631,0.081220
0.366,0.104846,0.080941
0.367,0.105489,0.080822
0.368,0.106561,0.080463
0.369,0.106561,0.080304
0.370,0.106990,0.080304
0.371,0.107633,0.080105
0.372,0.107847,0.079906
0.373,0.108919,0.079747
0.374,0.109777,0.079468
0.375,0.110635,0.079229
0.376,0.111278,0.079070
0.377,0.111707,0.078911
0.378,0.112779,0.078592
0.379,0.113208,0.078473
0.380,0.113851,0.078234
0.381,0.114494,0.078035
0.382,0.115780,0.077716
0.383,0.116424,0.077557
0.384,0.116638,0.077438
0.385,0.117710,0.077318
0.386,0.117925,0.077239
0.387,0.118353,0.077039
0.388,0.118568,0.076721
0.389,0.119425,0.076323
0.390,0.119854,0.076243
0.391,0.120283,0.076084
0.392,0.120926,0.075726
0.393,0.121998,0.075367
0.394,0.123285,0.075288
0.395,0.124142,0.075208
0.396,0.124786,0.075049
0.397,0.124786,0.074929
0.398,0.125000,0.074730
0.399,0.125214,0.074611
0.400,0.125858,0.074491
0.401,0.126072,0.074412
0.402,0.127144,0.074173
0.403,0.127358,0.073974
0.404,0.127573,0.073775
0.405,0.127787,0.073456
0.406,0.128216,0.073217
0.407,0.129074,0.073138
0.408,0.129503,0.072978
0.409,0.129717,0.072819
0.410,0.130360,0.072580
0.411,0.131003,0.072461
0.412,0.131432,0.072381
0.413,0.131861,0.072222
0.414,0.132504,0.071943
0.415,0.133362,0.071784
0.416,0.134434,0.071386
0.417,0.134863,0.071346
0.418,0.135292,0.071227
0.419,0.135935,0.070908
0.420,0.136364,0.070829
0.421,0.136364,0.070749
0.422,0.136792,0.070629
0.423,0.137221,0.070629
0.424,0.137650,0.070470
0.425,0.138722,0.070311
0.426,0.139151,0.070112
0.427,0.139794,0.069953
0.428,0.140437,0.069714
0.429,0.140652,0.069594
0.430,0.141081,0.069395
0.431,0.141509,0.069316
0.432,0.141724,0.069156
0.433,0.141938,0.068997
0.434,0.142367,0.068878
0.435,0.143010,0.068798
0.436,0.143225,0.068599
0.437,0.143868,0.068360
0.438,0.144511,0.068002
0.439,0.144940,0.067882
0.440,0.145583,0.067763
0.441,0.146226,0.067604
0.442,0.146441,0.067484
0.443,0.146655,0.067484
0.444,0.147084,0.067285
0.445,0.147298,0.067086
0.446,0.147513,0.066967
0.447,0.147942,0.066887
0.448,0.148156,0.066847
0.449,0.148370,0.066807
0.450,0.148585,0.066648
0.451,0.149228,0.066449
0.452,0.149443,0.066330
0.453,0.150086,0.066290
0.454,0.150300,0.066170
0.455,0.150300,0.066131
0.456,0.150300,0.066051
0.457,0.150729,0.065812
0.458,0.151158,0.065732
0.459,0.151372,0.065573
0.460,0.152015,0.065493
0.461,0.152444,0.065454
0.462,0.152444,0.065294
0.463,0.153087,0.065215
0.464,0.153731,0.065215
0.465,0.153945,0.065135
0.466,0.154374,0.064936
0.467,0.155232,0.064856
0.468,0.155875,0.064817
0.469,0.156089,0.064697
0.470,0.156518,0.064498
0.471,0.156732,0.064419
0.472,0.156732,0.064259
0.473,0.156947,0.064219
0.474,0.156947,0.064100
0.475,0.157590,0.064060
0.476,0.158019,0.063941
0.477,0.158877,0.063861
0.478,0.159091,0.063782
0.479,0.159305,0.063662
0.480,0.159734,0.063662
0.481,0.159949,0.063543
0.482,0.159949,0.063344
0.483,0.159949,0.063224
0.484,0.159949,0.063184
0.485,0.160163,0.062906
0.486,0.160592,0.062786
0.487,0.160806,0.062746
0.488,0.161449,0.062707
0.489,0.161664,0.062627
0.490,0.161878,0.062507
0.491,0.161878,0.062428
0.492,0.162307,0.062428
0.493,0.162307,0.062189
0.494,0.162307,0.062030
0.495,0.162521,0.062030
0.496,0.162521,0.061950
0.497,0.162521,0.061711
0.498,0.163165,0.061552
0.499,0.163165,0.061393
0.500,0.163593,0.061154
0.501,0.163593,0.061074
0.502,0.164022,0.060875
0.503,0.164451,0.060875
0.504,0.164451,0.060795
0.505,0.164451,0.060676
0.506,0.164666,0.060517
0.507,0.165094,0.060477
0.508,0.165094,0.060198
0.509,0.165309,0.060158
0.510,0.165309,0.060079
0.511,0.165523,0.060039
0.512,0.165738,0.060039
0.513,0.165738,0.059959
0.514,0.165738,0.059840
0.515,0.165738,0.059721
0.516,0.165738,0.059641
0.517,0.165738,0.059641
0.518,0.166166,0.059561
0.519,0.166381,0.059521
0.520,0.166595,0.059482
0.521,0.167024,0.059442
0.522,0.167238,0.059442
0.523,0.167238,0.059402
0.524,0.167238,0.059362
0.525,0.167238,0.059203
0.526,0.167238,0.059163
0.527,0.167882,0.059004
0.528,0.167882,0.058964
0.529,0.168096,0.058884
0.530,0.168096,0.058805
0.531,0.168525,0.058725
0.532,0.168739,0.058606
0.533,0.168739,0.058446
0.534,0.168954,0.058407
0.535,0.168954,0.058367
0.536,0.168954,0.058048
0.537,0.168954,0.057929
0.538,0.169168,0.057809
0.539,0.169168,0.057730
0.540,0.169383,0.057650
0.541,0.169383,0.057610
0.542,0.169811,0.057531
0.543,0.169811,0.057451
0.544,0.169811,0.057292
0.545,0.169811,0.057252
0.546,0.169811,0.057252
0.547,0.169811,0.057212
0.548,0.169811,0.057053
0.549,0.170240,0.057013
0.550,0.170455,0.056894
0.551,0.170669,0.056854
0.552,0.170669,0.056774
0.553,0.170669,0.056695
0.554,0.170669,0.056496
0.555,0.170669,0.056456
0.556,0.170669,0.056336
0.557,0.170883,0.056257
0.558,0.170883,0.056137
0.559,0.170883,0.056137
0.560,0.171098,0.056018
0.561,0.171098,0.055938
0.562,0.171098,0.055898
0.563,0.171098,0.055819
0.564,0.171098,0.055779
0.565,0.171527,0.055779
0.566,0.171741,0.055739
0.567,0.171741,0.055660
0.568,0.171741,0.055660
0.569,0.171955,0.055660
0.570,0.172170,0.055540
0.571,0.172170,0.055381
0.572,0.172170,0.055261
0.573,0.172170,0.055182
0.574,0.172384,0.055182
0.575,0.172384,0.055062
0.576,0.172384,0.054903
0.577,0.172813,0.054784
0.578,0.172813,0.054744
0.579,0.172813,0.054704
0.580,0.172813,0.054664
0.581,0.173027,0.054465
0.582,0.173242,0.054306
0.583,0.173242,0.054266
0.584,0.173242,0.054226
0.585,0.173242,0.054067
0.586,0.173885,0.053948
0.587,0.174099,0.053948
0.588,0.174099,0.053948
0.589,0.174314,0.053868
0.590,0.174528,0.053828
0.591,0.175386,0.053669
0.592,0.175386,0.053549
0.593,0.175386,0.053271
0.594,0.175386,0.053072
0.595,0.175600,0.052992
0.596,0.175815,0.052873
0.597,0.175815,0.052833
0.598,0.176029,0.052833
0.599,0.176029,0.052753
0.600,0.176244,0.052673
0.601,0.176458,0.052514
0.602,0.176672,0.052435
0.603,0.176672,0.052275
0.604,0.176672,0.052275
0.605,0.176672,0.052236
0.606,0.176887,0.052156
0.607,0.176887,0.052116
0.608,0.176887,0.052036
0.609,0.176887,0.051997
0.610,0.176887,0.051957
0.611,0.176887,0.051917
0.612,0.177101,0.051837
0.613,0.177101,0.051718
0.614,0.177101,0.051599
0.615,0.177101,0.051559
0.616,0.177101,0.051399
0.617,0.177316,0.051320
0.618,0.177316,0.051280
0.619,0.177316,0.051240
0.620,0.177316,0.051240
0.621,0.177530,0.051081
0.622,0.177530,0.050962
0.623,0.177530,0.050922
0.624,0.177530,0.050802
0.625,0.177530,0.050762
0.626,0.177744,0.050683
0.627,0.177744,0.050643
0.628,0.177744,0.050603
0.629,0.177744,0.050444
0.630,0.177744,0.050444
0.631,0.177744,0.050404
0.632,0.177744,0.050324
0.633,0.177959,0.050245
0.634,0.178388,0.050165
0.635,0.178388,0.050165
0.636,0.178388,0.050165
0.637,0.178602,0.050006
0.638,0.178602,0.049926
0.639,0.178816,0.049887
0.640,0.178816,0.049807
0.641,0.178816,0.049687
0.642,0.179245,0.049568
0.643,0.179460,0.049528
0.644,0.179674,0.049449
0.645,0.179674,0.049409
0.646,0.179674,0.049409
0.647,0.179674,0.049369
0.648,0.179674,0.049329
0.649,0.179889,0.049289
0.650,0.179889,0.049250
0.651,0.180103,0.049130
0.652,0.180317,0.049011
0.653,0.180532,0.048971
0.654,0.180532,0.048891
0.655,0.180532,0.048812
0.656,0.180961,0.048652
0.657,0.180961,0.048652
0.658,0.181175,0.048533
0.659,0.181175,0.048533
0.660,0.181175,0.048453
0.661,0.181175,0.048453
0.662,0.181389,0.048453
0.663,0.181389,0.048374
0.664,0.181389,0.048334
0.665,0.181389,0.048334
0.666,0.181389,0.048294
0.667,0.181604,0.048294
0.668,0.181604,0.048175
0.669,0.181604,0.048135
0.670,0.181818,0.048135
0.671,0.181818,0.048055
0.672,0.182033,0.047936
0.673,0.182033,0.047896
0.674,0.182033,0.047856
0.675,0.182033,0.047816
0.676,0.182033,0.047697
0.677,0.182247,0.047697
0.678,0.182247,0.047538
0.679,0.182247,0.047538
0.680,0.182461,0.047538
0.681,0.182890,0.047458
0.682,0.182890,0.047378
0.683,0.182890,0.047378
0.684,0.182890,0.047299
0.685,0.183105,0.047299
0.686,0.183105,0.047219
0.687,0.183105,0.047139
0.688,0.183105,0.047060
0.689,0.183105,0.047020
0.690,0.183105,0.046940
0.691,0.183105,0.046861
0.692,0.183319,0.046821
0.693,0.183319,0.046741
0.694,0.183319,0.046701
0.695,0.183319,0.046582
0.696,0.183319,0.046502
0.697,0.183319,0.046463
0.698,0.183319,0.046423
0.699,0.183319,0.046423
0.700,0.183319,0.046423
0.701,0.183319,0.046423
0.702,0.183319,0.046303
0.703,0.183319,0.046263
0.704,0.183319,0.046263
0.705,0.183319,0.046263
0.706,0.183319,0.046224
0.707,0.183533,0.046104
0.708,0.183748,0.046025
0.709,0.183748,0.045905
0.710,0.183748,0.045865
0.711,0.183748,0.045826
0.712,0.183748,0.045786
0.713,0.183748,0.045706
0.714,0.183748,0.045587
0.715,0.183748,0.045467
0.716,0.183748,0.045388
0.717,0.183748,0.045348
0.718,0.183962,0.045228
0.719,0.183962,0.045149
0.720,0.183962,0.045109
0.721,0.184177,0.045069
0.722,0.184391,0.045029
0.723,0.184391,0.044989
0.724,0.184605,0.044830
0.725,0.184605,0.044790
0.726,0.184605,0.044631
0.727,0.184605,0.044551
0.728,0.184820,0.044512
0.729,0.184820,0.044432
0.730,0.184820,0.044313
0.731,0.184820,0.044233
0.732,0.184820,0.044114
0.733,0.184820,0.044034
0.734,0.184820,0.043994
0.735,0.185034,0.043954
0.736,0.185034,0.043914
0.737,0.185034,0.043914
0.738,0.185249,0.043875
0.739,0.185249,0.043835
0.740,0.185463,0.043835
0.741,0.185463,0.043795
0.742,0.185678,0.043676
0.743,0.185678,0.043596
0.744,0.185892,0.043516
0.745,0.186321,0.043477
0.746,0.186321,0.043437
0.747,0.186321,0.043238
0.748,0.186321,0.043198
0.749,0.186321,0.043078
0.750,0.186321,0.043039
0.751,0.186535,0.042999
0.752,0.186750,0.042919
0.753,0.186750,0.042840
0.754,0.186750,0.042800
0.755,0.186750,0.042720
0.756,0.186750,0.042680
0.757,0.186964,0.042640
0.758,0.187607,0.042481
0.759,0.187607,0.042481
0.760,0.187822,0.042481
0.761,0.188036,0.042481
0.762,0.188250,0.042402
0.763,0.188465,0.042282
0.764,0.188465,0.042242
0.765,0.188679,0.042242
0.766,0.189108,0.042123
0.767,0.189108,0.042083
0.768,0.189751,0.042003
0.769,0.189751,0.041884
0.770,0.189751,0.041804
0.771,0.190180,0.041725
0.772,0.190395,0.041645
0.773,0.190609,0.041605
0.774,0.190609,0.041605
0.775,0.190609,0.041605
0.776,0.190609,0.041565
0.777,0.190609,0.041406
0.778,0.190823,0.041406
0.779,0.191252,0.041406
0.780,0.191467,0.041406
0.781,0.191681,0.041287
0.782,0.191681,0.041247
0.783,0.191681,0.041048
0.784,0.191895,0.041008
0.785,0.197684,0.040968
0.786,0.197684,0.040928
0.787,0.197684,0.040889
0.788,0.197684,0.040809
0.789,0.197684,0.040650
0.790,0.197684,0.040570
0.791,0.198113,0.040530
0.792,0.198328,0.040530
0.793,0.198971,0.040451
0.794,0.199185,0.040411
0.795,0.199185,0.040371
0.796,0.199400,0.040331
0.797,0.199400,0.040252
0.798,0.199400,0.040252
0.799,0.199400,0.040212
0.800,0.199828,0.040212
0.801,0.199828,0.040132
0.802,0.199828,0.040132
0.803,0.200043,0.040092
0.804,0.200472,0.040092
0.805,0.200472,0.040013
0.806,0.200686,0.040013
0.807,0.201115,0.039893
0.808,0.201115,0.039774
0.809,0.201758,0.039734
0.810,0.201758,0.039694
0.811,0.201758,0.039535
0.812,0.201973,0.039535
0.813,0.202401,0.039495
0.814,0.203259,0.039455
0.815,0.203259,0.039336
0.816,0.203473,0.039296
0.817,0.203688,0.039137
0.818,0.203688,0.039097
0.819,0.203902,0.039057
0.820,0.203902,0.038898
0.821,0.203902,0.038739
0.822,0.204331,0.038659
0.823,0.205189,0.038579
0.824,0.205617,0.038540
0.825,0.206046,0.038380
0.826,0.206261,0.038341
0.827,0.206261,0.038221
0.828,0.206475,0.038141
0.829,0.206904,0.038062
0.830,0.207118,0.037942
0.831,0.207333,0.037783
0.832,0.207547,0.037704
0.833,0.207762,0.037584
0.834,0.207976,0.037544
0.835,0.207976,0.037465
0.836,0.208405,0.037385
0.837,0.208405,0.037345
0.838,0.208405,0.037305
0.839,0.208619,0.037226
0.840,0.208834,0.037146
0.841,0.209048,0.037027
0.842,0.209262,0.037027
0.843,0.209691,0.037027
0.844,0.209691,0.036828
0.845,0.209691,0.036828
0.846,0.209691,0.036748
0.847,0.210334,0.036708
0.848,0.210549,0.036629
0.849,0.210763,0.036430
0.850,0.210978,0.036350
0.851,0.211407,0.036310
0.852,0.211621,0.036310
0.853,0.211621,0.036270
0.854,0.211835,0.036270
0.855,0.212050,0.036111
0.856,0.212264,0.035992
0.857,0.212264,0.035952
0.858,0.212907,0.035952
0.859,0.213122,0.035912
0.860,0.213122,0.035872
0.861,0.213336,0.035872
0.862,0.213765,0.035872
0.863,0.213979,0.035713
0.864,0.214408,0.035554
0.865,0.214837,0.035474
0.866,0.215051,0.035394
0.867,0.215051,0.035355
0.868,0.215909,0.035355
0.869,0.216123,0.035275
0.870,0.216552,0.035155
0.871,0.216552,0.035116
0.872,0.217410,0.035036
0.873,0.217624,0.034917
0.874,0.217839,0.034837
0.875,0.218482,0.034558
0.876,0.218696,0.034479
0.877,0.218911,0.034479
0.878,0.219340,0.034399
0.879,0.219340,0.034319
0.880,0.219768,0.034240
0.881,0.220197,0.034120
0.882,0.220626,0.033961
0.883,0.221055,0.033921
0.884,0.221269,0.033881
0.885,0.221269,0.033722
0.886,0.221484,0.033682
0.887,0.221484,0.033563
0.888,0.222127,0.033483
0.889,0.222556,0.033443
0.890,0.222985,0.033324
0.891,0.223199,0.033284
0.892,0.223842,0.033165
0.893,0.224057,0.033045
0.894,0.224271,0.032926
0.895,0.225129,0.032886
0.896,0.225557,0.032767
0.897,0.226201,0.032568
0.898,0.226844,0.032408
0.899,0.227273,0.032329
0.900,0.227916,0.032289
0.901,0.228774,0.032169
0.902,0.228988,0.032050
0.903,0.230060,0.031851
0.904,0.231561,0.031612
0.905,0.233276,0.031612
0.906,0.233276,0.031493
0.907,0.233705,0.031373
0.908,0.234134,0.031254
0.909,0.234134,0.031214
0.910,0.234777,0.031094
0.911,0.235420,0.031055
0.912,0.236278,0.030975
0.913,0.236278,0.030856
0.914,0.236278,0.030816
0.915,0.236492,0.030776
0.916,0.236921,0.030736
0.917,0.237350,0.030577
0.918,0.237564,0.030497
0.919,0.238208,0.030338
0.920,0.239065,0.030179
0.921,0.239494,0.030020
0.922,0.239708,0.029820
0.923,0.240780,0.029621
0.924,0.241424,0.029502
0.925,0.242281,0.029462
0.926,0.243139,0.029223
0.927,0.244425,0.029104
0.928,0.246141,0.028905
0.929,0.247213,0.028785
0.930,0.248285,0.028706
0.931,0.248714,0.028626
0.932,0.250858,0.028546
0.933,0.251930,0.028387
0.934,0.252144,0.028228
0.935,0.252787,0.028029
0.936,0.253645,0.027870
0.937,0.255146,0.027870
0.938,0.256003,0.027710
0.939,0.257719,0.027591
0.940,0.259434,0.027352
0.941,0.260506,0.027272
0.942,0.261578,0.027113
0.943,0.262864,0.026994
0.944,0.264794,0.026954
0.945,0.267367,0.026635
0.946,0.268868,0.026476
0.947,0.271012,0.026277
0.948,0.271870,0.026158
0.949,0.272942,0.025959
0.950,0.274657,0.025759
0.951,0.276372,0.025680
0.952,0.278087,0.025640
0.953,0.279803,0.025560
0.954,0.281089,0.025361
0.955,0.282590,0.025083
0.956,0.284091,0.025003
0.957,0.287307,0.024844
0.958,0.289022,0.024764
0.959,0.291381,0.024565
0.960,0.293739,0.024406
0.961,0.295883,0.024326
0.962,0.299099,0.024286
0.963,0.301029,0.024087
0.964,0.302316,0.023968
0.965,0.305961,0.023809
0.966,0.311106,0.023610
0.967,0.312822,0.023410
0.968,0.320755,0.023172
0.969,0.323328,0.023012
0.970,0.325043,0.022734
0.971,0.328688,0.022654
0.972,0.331690,0.022614
0.973,0.335334,0.022495
0.974,0.340051,0.022216
0.975,0.344125,0.022017
0.976,0.349700,0.021858
0.977,0.353345,0.021539
0.978,0.358705,0.021380
0.979,0.363208,0.021221
0.980,0.367710,0.020902
0.981,0.372856,0.020663
0.982,0.379717,0.020265
0.983,0.383791,0.019907
0.984,0.390437,0.019349
0.985,0.396655,0.018673
0.986,0.403302,0.018155
0.987,0.411664,0.017478
0.988,0.456046,0.016762
0.989,0.465695,0.016125
0.990,0.475343,0.015408
0.991,0.484777,0.014413
0.992,0.498928,0.013377
0.993,0.514151,0.012183
0.994,0.535163,0.010670
0.995,0.562822,0.009117
0.996,0.790952,0.006808
0.997,0.838551,0.005335
0.998,0.890866,0.002230
0.999,1.000000,0.000000
1.000,1.000000,0.000000
